routes_id,lat,lng,routes_status_code,uber_pool_distance,uber_pool_duration,uber_pool_high_estimate,uber_pool_low_estimate,uber_x_distance,uber_x_duration,uber_x_high_estimate,uber_x_low_estimate,uber_pool_surge,uber_x_surge,radius
0,42.38062996424832,-71.11897355408145,200,0.71,300.0,9.0,6.0,0.71,300.0,9.0,6.0,,,0.5
1,42.38009435009527,-71.11690158995577,200,0.89,300.0,9.0,6.0,0.89,300.0,9.0,6.0,,,0.5
2,42.37923155271303,-71.11504290455599,200,0.77,300.0,9.0,6.0,0.77,300.0,9.0,6.0,,,0.5
3,42.378084836365105,-71.11349070012922,200,0.74,300.0,8.0,5.0,0.74,300.0,9.0,6.0,,,0.5
4,42.376711702197404,-71.1123228106869,200,0.69,240.0,8.0,5.0,0.69,240.0,9.0,6.0,,,0.5
5,42.375181004890855,-71.11159779908233,200,0.64,240.0,8.0,5.0,0.64,240.0,9.0,6.0,,,0.5
6,42.3735695,-71.11135202042475,200,0.69,240.0,8.0,5.0,0.69,240.0,9.0,6.0,,,0.5
7,42.371957995109156,-71.11159779908233,200,0.9,300.0,8.0,5.0,0.9,300.0,9.0,6.0,,,0.5
8,42.3704272978026,-71.1123228106869,200,0.73,300.0,8.0,5.0,0.73,300.0,9.0,6.0,,,0.5
9,42.36905416363491,-71.11349070012922,200,0.75,300.0,8.0,5.0,0.75,300.0,9.0,6.0,,,0.5
10,42.367907447286974,-71.11504290455599,200,1.13,300.0,8.0,5.0,1.13,300.0,9.0,6.0,,,0.5
11,42.367044649904734,-71.11690158995577,200,1.1,300.0,8.0,5.0,1.1,300.0,9.0,6.0,,,0.5
12,42.36650903575168,-71.11897355408145,200,2.07,300.0,9.0,6.0,2.07,300.0,9.0,6.0,,,0.5
13,42.36632746275797,-71.12115490000002,200,1.06,300.0,8.0,5.0,1.06,300.0,8.0,5.0,,,0.5
14,42.36650903575168,-71.12333624591855,200,0.96,300.0,8.0,5.0,0.96,300.0,8.0,5.0,,,0.5
15,42.367044649904734,-71.1254082100442,200,1.54,480.0,9.0,5.0,1.54,480.0,8.0,6.0,,,0.5
16,42.367907447286974,-71.12726689544401,200,1.25,360.0,8.0,5.0,1.25,360.0,8.0,5.0,,,0.5
17,42.36905416363491,-71.12881909987077,200,1.32,360.0,8.0,5.0,1.32,360.0,8.0,5.0,,,0.5
18,42.3704272978026,-71.12998698931308,200,1.6,300.0,9.0,5.0,1.6,300.0,8.0,6.0,,,0.5
19,42.371957995109156,-71.13071200091765,200,1.21,300.0,8.0,5.0,1.21,300.0,8.0,5.0,,,0.5
20,42.3735695,-71.13095777957524,200,0.5,60.0,9.0,6.0,0.5,60.0,9.0,7.0,,,0.5
21,42.375181004890855,-71.13071200091765,200,0.75,240.0,9.0,6.0,0.75,240.0,9.0,6.0,,,0.5
22,42.376711702197404,-71.12998698931308,200,0.6,180.0,9.0,6.0,0.6,180.0,9.0,6.0,,,0.5
23,42.378084836365105,-71.12881909987077,200,0.61,180.0,9.0,6.0,0.61,180.0,9.0,6.0,,,0.5
24,42.37923155271303,-71.12726689544401,200,0.74,180.0,9.0,6.0,0.74,180.0,9.0,6.0,,,0.5
25,42.38009435009527,-71.1254082100442,200,0.6,240.0,9.0,6.0,0.6,240.0,9.0,6.0,,,0.5
26,42.38062996424832,-71.12333624591855,200,0.74,240.0,9.0,6.0,0.74,240.0,9.0,6.0,,,0.5
27,42.38081153724204,-71.12115490000002,200,0.76,300.0,9.0,6.0,0.76,300.0,9.0,6.0,,,0.75
28,42.3843112245044,-71.11896333491957,200,1.24,360.0,9.0,6.0,1.24,360.0,9.0,6.0,,,0.75
29,42.38394994077047,-71.1168207257816,200,1.01,300.0,9.0,6.0,1.01,300.0,9.0,6.0,,,0.75
30,42.3833567751429,-71.11477493493365,200,1.11,300.0,9.0,6.0,1.11,300.0,9.0,6.0,,,0.75
31,42.382544977961615,-71.1128716619627,200,1.14,360.0,9.0,6.0,1.14,360.0,9.0,6.0,,,0.75
32,42.38153268343421,-71.11115342284191,200,1.06,360.0,8.0,5.0,1.06,360.0,9.0,6.0,,,0.75
33,42.38034250454764,-71.10965860019384,200,1.04,360.0,8.0,5.0,1.04,360.0,9.0,6.0,,,0.75
34,42.37900102793153,-71.10842058588639,200,0.97,360.0,8.0,5.0,0.97,360.0,9.0,6.0,,,0.75
35,42.377538219956755,-71.10746703511342,200,0.95,300.0,8.0,5.0,0.95,300.0,9.0,6.0,,,0.75
36,42.37598675733627,-71.10681924862351,200,0.99,300.0,8.0,5.0,0.99,300.0,9.0,6.0,,,0.75
37,42.37438129718128,-71.10649169689637,200,0.91,300.0,8.0,5.0,0.91,300.0,9.0,6.0,,,0.75
38,42.37275770281872,-71.10649169689637,200,1.06,300.0,8.0,5.0,1.06,300.0,9.0,6.0,,,0.75
39,42.371152242663726,-71.10681924862351,200,0.99,300.0,8.0,5.0,0.99,300.0,9.0,6.0,,,0.75
40,42.36960078004324,-71.10746703511342,200,1.05,360.0,8.0,5.0,1.05,360.0,9.0,6.0,,,0.75
41,42.368137972068475,-71.10842058588639,200,0.96,360.0,8.0,5.0,0.96,360.0,9.0,6.0,,,0.75
42,42.36679649545236,-71.10965860019384,200,1.02,360.0,8.0,5.0,1.02,360.0,9.0,6.0,,,0.75
43,42.365606316565795,-71.11115342284191,200,1.15,360.0,8.0,5.0,1.15,360.0,9.0,6.0,,,0.75
44,42.36459402203838,-71.1128716619627,200,1.15,360.0,8.0,5.0,1.15,360.0,9.0,6.0,,,0.75
45,42.363782224857104,-71.11477493493365,200,1.49,360.0,8.0,5.0,1.49,360.0,9.0,7.0,,,0.75
46,42.36318905922953,-71.1168207257816,200,1.38,360.0,8.0,5.0,1.38,360.0,8.0,5.0,,,0.75
47,42.36282777549561,-71.11896333491957,200,1.63,420.0,9.0,6.0,1.63,420.0,8.0,6.0,,,0.75
48,42.36270644413696,-71.12115490000002,200,1.8,420.0,9.0,6.0,1.8,420.0,9.0,6.0,,,0.75
49,42.36282777549561,-71.12334646508042,200,1.73,420.0,9.0,6.0,1.73,420.0,9.0,6.0,,,0.75
50,42.36318905922953,-71.12548907421841,200,1.79,420.0,9.0,6.0,1.79,420.0,9.0,6.0,,,0.75
51,42.363782224857104,-71.12753486506635,200,1.89,420.0,9.0,6.0,1.89,420.0,9.0,6.0,,,0.75
52,42.36459402203838,-71.12943813803726,200,1.23,420.0,9.0,5.0,1.23,420.0,8.0,6.0,,,0.75
53,42.365606316565795,-71.13115637715809,200,2.07,420.0,10.0,6.0,2.07,420.0,9.0,7.0,,,0.75
54,42.36679649545236,-71.13265119980616,200,1.62,300.0,9.0,5.0,1.62,300.0,8.0,6.0,,,0.75
55,42.368137972068475,-71.1338892141136,200,1.27,300.0,8.0,5.0,1.27,300.0,8.0,5.0,,,0.75
56,42.36960078004324,-71.13484276488656,200,1.09,300.0,8.0,5.0,1.09,300.0,8.0,5.0,,,0.75
57,42.371152242663726,-71.13549055137649,200,0.98,300.0,8.0,5.0,0.98,300.0,8.0,5.0,,,0.75
58,42.37275770281872,-71.13581810310359,200,0.93,300.0,8.0,5.0,0.93,300.0,8.0,5.0,,,0.75
59,42.37438129718128,-71.13581810310359,200,0.84,240.0,9.0,6.0,0.84,240.0,9.0,6.0,,,0.75
60,42.37598675733627,-71.13549055137649,200,0.94,240.0,9.0,6.0,0.94,240.0,9.0,6.0,,,0.75
61,42.377538219956755,-71.13484276488656,200,0.81,240.0,9.0,6.0,0.81,240.0,9.0,6.0,,,0.75
62,42.37900102793153,-71.1338892141136,200,0.84,240.0,9.0,6.0,0.84,240.0,9.0,6.0,,,0.75
63,42.38034250454764,-71.13265119980616,200,1.23,300.0,9.0,6.0,1.23,300.0,9.0,6.0,,,0.75
64,42.38153268343421,-71.13115637715809,200,1.2,300.0,9.0,6.0,1.2,300.0,9.0,6.0,,,0.75
65,42.382544977961615,-71.12943813803726,200,0.91,300.0,9.0,6.0,0.91,300.0,9.0,6.0,,,0.75
66,42.3833567751429,-71.12753486506635,200,0.86,300.0,9.0,6.0,0.86,300.0,9.0,6.0,,,0.75
67,42.38394994077047,-71.12548907421841,200,0.96,300.0,9.0,6.0,0.96,300.0,9.0,6.0,,,0.75
68,42.3843112245044,-71.12334646508042,200,1.06,360.0,9.0,6.0,1.06,360.0,9.0,6.0,,,0.75
69,42.38443255586306,-71.12115490000002,200,1.08,300.0,9.0,6.0,1.08,300.0,9.0,6.0,,,1.0
70,42.38796250166383,-71.1189597514481,200,1.16,360.0,9.0,6.0,1.16,360.0,9.0,6.0,,,1.0
71,42.38769042849665,-71.1167922081629,200,1.38,420.0,9.0,6.0,1.38,420.0,9.0,7.0,,,1.0
72,42.387240776460466,-71.11467952825885,200,1.58,480.0,10.0,7.0,1.58,480.0,10.0,7.0,,,1.0
73,42.38661920019053,-71.11264827991155,200,1.58,480.0,10.0,6.0,1.58,480.0,10.0,7.0,,,1.0
74,42.3858335163691,-71.1107240072475,200,1.65,480.0,10.0,7.0,1.65,480.0,10.0,7.0,,,1.0
75,42.384893605426065,-71.10893090911196,200,1.81,540.0,9.0,5.0,1.81,540.0,11.0,8.0,,,1.0
76,42.383811287286896,-71.10729153475437,200,1.33,480.0,8.0,5.0,1.33,480.0,9.0,7.0,,,1.0
77,42.382600172730186,-71.10582650025846,200,1.34,420.0,8.0,5.0,1.34,420.0,10.0,7.0,,,1.0
78,42.38127549222418,-71.10455422928305,200,1.33,420.0,8.0,5.0,1.33,420.0,9.0,7.0,,,1.0
79,42.379853904394814,-71.10349072137382,200,1.21,420.0,8.0,5.0,1.21,420.0,9.0,6.0,,,1.0
80,42.37835328653389,-71.10264935075979,200,1.4,420.0,8.0,5.0,1.4,420.0,9.0,7.0,,,1.0
81,42.376792509781694,-71.10204069816467,200,1.31,360.0,8.0,5.0,1.31,360.0,9.0,6.0,,,1.0
82,42.375191201811454,-71.10167241774793,200,1.33,360.0,8.0,5.0,1.33,360.0,9.0,7.0,,,1.0
83,42.3735695,-71.10154914084951,200,1.2,360.0,8.0,5.0,1.2,360.0,9.0,6.0,,,1.0
84,42.37194779818855,-71.10167241774793,200,1.34,360.0,8.0,5.0,1.34,360.0,9.0,7.0,,,1.0
85,42.37034649021831,-71.10204069816467,200,1.31,360.0,8.0,5.0,1.31,360.0,9.0,6.0,,,1.0
86,42.36878571346611,-71.10264935075979,200,1.37,420.0,8.0,5.0,1.37,420.0,9.0,7.0,,,1.0
87,42.36728509560521,-71.10349072137382,200,1.62,420.0,8.0,5.0,1.62,420.0,10.0,7.0,,,1.0
88,42.36586350777585,-71.10455422928305,200,1.22,480.0,8.0,5.0,1.22,480.0,9.0,7.0,,,1.0
89,42.36453882726982,-71.10582650025846,200,1.27,480.0,8.0,5.0,1.27,480.0,10.0,7.0,,,1.0
90,42.3633277127131,-71.10729153475437,200,1.46,540.0,9.0,5.0,1.46,540.0,10.0,7.0,,,1.0
91,42.36224539457394,-71.10893090911196,200,1.91,480.0,9.0,6.0,1.91,480.0,11.0,8.0,,,1.0
92,42.36130548363092,-71.1107240072475,200,2.36,480.0,11.0,8.0,2.36,480.0,12.0,9.0,,,1.0
93,42.36051979980947,-71.11264827991155,200,1.89,420.0,10.0,7.0,1.89,420.0,10.0,8.0,,,1.0
94,42.35989822353954,-71.11467952825885,200,1.81,420.0,9.0,6.0,1.81,420.0,9.0,6.0,,,1.0
95,42.35944857150336,-71.1167922081629,200,5.59,660.0,15.0,10.0,5.59,660.0,15.0,11.0,,,1.0
96,42.359176498336176,-71.1189597514481,200,1.81,480.0,9.0,6.0,1.81,480.0,9.0,6.0,,,1.0
97,42.35908542551593,-71.12115490000002,200,1.91,540.0,10.0,6.0,1.91,540.0,9.0,7.0,,,1.0
98,42.359176498336176,-71.12335004855187,200,2.07,480.0,10.0,6.0,2.07,480.0,9.0,7.0,,,1.0
99,42.35944857150336,-71.12551759183708,200,1.71,480.0,10.0,6.0,1.71,480.0,9.0,6.0,,,1.0
100,42.35989822353954,-71.12763027174114,200,1.59,480.0,9.0,6.0,1.59,480.0,9.0,6.0,,,1.0
101,42.36051979980947,-71.12966152008845,200,1.49,480.0,9.0,6.0,1.49,480.0,9.0,6.0,,,1.0
102,42.36130548363092,-71.13158579275249,200,1.44,480.0,9.0,6.0,1.44,480.0,9.0,6.0,,,1.0
103,42.36224539457394,-71.13337889088804,200,2.23,600.0,11.0,7.0,2.23,600.0,10.0,7.0,,,1.0
104,42.3633277127131,-71.13501826524559,200,1.97,480.0,10.0,6.0,1.97,480.0,9.0,7.0,,,1.0
105,42.36453882726982,-71.13648329974154,200,1.87,360.0,9.0,6.0,1.87,360.0,9.0,6.0,,,1.0
106,42.36586350777585,-71.13775557071695,200,1.39,360.0,9.0,5.0,1.39,360.0,8.0,6.0,,,1.0
107,42.36728509560521,-71.13881907862617,200,1.61,360.0,9.0,6.0,1.61,360.0,8.0,6.0,,,1.0
108,42.36878571346611,-71.13966044924018,200,1.47,360.0,9.0,5.0,1.47,360.0,8.0,6.0,,,1.0
109,42.37034649021831,-71.1402691018353,200,1.33,360.0,8.0,5.0,1.33,360.0,8.0,5.0,,,1.0
110,42.37194779818855,-71.14063738225204,200,1.63,420.0,9.0,6.0,1.63,420.0,8.0,6.0,,,1.0
111,42.3735695,-71.14076065915047,200,1.61,420.0,9.0,6.0,1.61,420.0,8.0,6.0,,,1.0
112,42.375191201811454,-71.14063738225204,200,1.06,300.0,8.0,5.0,1.06,300.0,8.0,5.0,,,1.0
113,42.376792509781694,-71.1402691018353,200,1.1,300.0,9.0,6.0,1.1,300.0,9.0,6.0,,,1.0
114,42.37835328653389,-71.13966044924018,200,1.13,300.0,9.0,6.0,1.13,300.0,9.0,6.0,,,1.0
115,42.379853904394814,-71.13881907862617,200,1.48,360.0,9.0,6.0,1.48,360.0,9.0,7.0,,,1.0
116,42.38127549222418,-71.13775557071695,200,1.21,300.0,9.0,6.0,1.21,300.0,9.0,6.0,,,1.0
117,42.382600172730186,-71.13648329974154,200,1.35,360.0,9.0,6.0,1.35,360.0,9.0,7.0,,,1.0
118,42.383811287286896,-71.13501826524559,200,1.22,300.0,9.0,6.0,1.22,300.0,9.0,6.0,,,1.0
119,42.384893605426065,-71.13337889088804,200,1.37,360.0,9.0,6.0,1.37,360.0,9.0,7.0,,,1.0
120,42.3858335163691,-71.13158579275249,200,1.16,360.0,9.0,6.0,1.16,360.0,9.0,6.0,,,1.0
121,42.38661920019053,-71.12966152008845,200,1.19,300.0,9.0,6.0,1.19,300.0,9.0,6.0,,,1.0
122,42.387240776460466,-71.12763027174114,200,1.19,300.0,9.0,6.0,1.19,300.0,9.0,6.0,,,1.0
123,42.38769042849665,-71.12551759183708,200,1.31,360.0,9.0,6.0,1.31,360.0,9.0,7.0,,,1.0
124,42.38796250166383,-71.12335004855187,200,1.34,360.0,9.0,6.0,1.34,360.0,9.0,7.0,,,1.0
125,42.388053574484076,-71.12115490000002,200,1.41,360.0,9.0,6.0,1.41,360.0,9.0,7.0,,,1.25
126,42.39160170732306,-71.11895809162401,200,1.49,480.0,8.0,5.0,1.49,480.0,10.0,7.0,,,1.25
127,42.39138363681044,-71.11677897065739,200,1.75,540.0,10.0,7.0,1.75,540.0,11.0,8.0,,,1.25
128,42.39102213734275,-71.1146350821008,200,1.81,540.0,11.0,7.0,1.81,540.0,11.0,8.0,,,1.25
129,42.39052011950117,-71.11254368728439,200,1.86,540.0,9.0,6.0,1.86,540.0,11.0,8.0,,,1.25
130,42.38988162523817,-71.11052162488944,200,1.82,540.0,9.0,5.0,1.82,540.0,11.0,8.0,,,1.25
131,42.38911179533412,-71.10858517537339,200,1.9,540.0,9.0,6.0,1.9,540.0,11.0,8.0,,,1.25
132,42.38821682800676,-71.10674992988918,200,1.68,540.0,9.0,5.0,1.68,540.0,10.0,8.0,,,1.25
133,42.387203929006795,-71.10503066475431,200,1.71,540.0,9.0,5.0,1.71,540.0,10.0,8.0,,,1.25
134,42.38608125360136,-71.10344122248074,200,1.6,540.0,8.0,5.0,1.6,540.0,10.0,7.0,,,1.25
135,42.38485784091273,-71.10199440032308,200,1.66,540.0,9.0,5.0,1.66,540.0,10.0,8.0,,,1.25
136,42.3835435411405,-71.10070184724262,200,1.81,540.0,9.0,5.0,1.81,540.0,11.0,8.0,,,1.25
137,42.382148936253664,-71.09957397011678,200,1.79,660.0,9.0,6.0,1.79,660.0,11.0,8.0,,,1.25
138,42.38068525479073,-71.09861984994895,200,1.73,540.0,9.0,5.0,1.73,540.0,10.0,8.0,,,1.25
139,42.37916428145422,-71.09784716875377,200,1.44,420.0,8.0,5.0,1.44,420.0,10.0,7.0,,,1.25
140,42.37759826222711,-71.09726214770583,200,1.58,420.0,8.0,5.0,1.58,420.0,10.0,7.0,,,1.25
141,42.37599980577543,-71.09686949705069,200,1.52,480.0,8.0,5.0,1.52,480.0,10.0,7.0,,,1.25
142,42.374381781930644,-71.09667237818047,200,1.77,540.0,9.0,5.0,1.77,540.0,10.0,8.0,,,1.25
143,42.37275721806936,-71.09667237818047,200,1.47,420.0,8.0,5.0,1.47,420.0,10.0,7.0,,,1.25
144,42.371139194224575,-71.09686949705069,200,1.54,480.0,8.0,5.0,1.54,480.0,10.0,7.0,,,1.25
145,42.3695407377729,-71.09726214770583,200,1.57,480.0,8.0,5.0,1.57,480.0,10.0,7.0,,,1.25
146,42.36797471854579,-71.09784716875377,200,1.48,360.0,8.0,4.0,1.48,360.0,9.0,7.0,,,1.25
147,42.36645374520928,-71.09861984994895,200,1.64,420.0,8.0,5.0,1.64,420.0,10.0,7.0,,,1.25
148,42.36499006374634,-71.09957397011678,200,1.77,480.0,9.0,5.0,1.77,480.0,10.0,8.0,,,1.25
149,42.3635954588595,-71.10070184724262,200,1.83,540.0,9.0,6.0,1.83,540.0,11.0,8.0,,,1.25
150,42.36228115908728,-71.10199440032308,200,2.92,720.0,13.0,9.0,2.92,720.0,13.0,10.0,,,1.25
151,42.36105774639864,-71.10344122248074,200,2.79,600.0,12.0,9.0,2.79,600.0,13.0,10.0,,,1.25
152,42.35993507099322,-71.10503066475431,200,2.68,600.0,12.0,8.0,2.68,600.0,12.0,9.0,,,1.25
153,42.35892217199324,-71.10674992988918,200,2.43,540.0,12.0,8.0,2.43,540.0,12.0,9.0,,,1.25
154,42.35802720466589,-71.10858517537339,200,1.98,540.0,11.0,7.0,1.98,540.0,11.0,8.0,,,1.25
155,42.35725737476184,-71.11052162488944,200,2.18,540.0,11.0,8.0,2.18,540.0,12.0,9.0,,,1.25
156,42.35661888049884,-71.11254368728439,200,1.98,480.0,11.0,7.0,1.98,480.0,11.0,8.0,,,1.25
157,42.35611686265725,-71.1146350821008,200,1.89,420.0,11.0,7.0,1.89,420.0,11.0,8.0,,,1.25
158,42.355755363189566,-71.11677897065739,200,6.25,840.0,19.0,14.0,6.25,840.0,20.0,15.0,,,1.25
159,42.355537292676935,-71.11895809162401,200,2.16,540.0,11.0,7.0,2.16,540.0,11.0,8.0,,,1.25
160,42.35546440689491,-71.12115490000002,200,2.23,780.0,11.0,7.0,2.23,780.0,11.0,8.0,,,1.25
161,42.355537292676935,-71.12335170837595,200,2.12,720.0,10.0,6.0,2.12,720.0,10.0,7.0,,,1.25
162,42.355755363189566,-71.1255308293426,200,2.01,720.0,10.0,6.0,2.01,720.0,9.0,7.0,,,1.25
163,42.35611686265725,-71.12767471789917,200,1.9,600.0,9.0,6.0,1.9,600.0,9.0,6.0,,,1.25
164,42.35661888049884,-71.1297661127156,200,2.17,720.0,10.0,6.0,2.17,720.0,10.0,7.0,,,1.25
165,42.35725737476184,-71.13178817511056,200,1.97,600.0,10.0,7.0,1.97,600.0,10.0,7.0,,,1.25
166,42.35802720466589,-71.1337246246266,200,2.47,660.0,11.0,7.0,2.47,660.0,11.0,8.0,,,1.25
167,42.35892217199324,-71.13555987011081,200,1.78,600.0,10.0,6.0,1.78,600.0,9.0,7.0,,,1.25
168,42.35993507099322,-71.13727913524569,200,2.23,600.0,11.0,7.0,2.23,600.0,10.0,7.0,,,1.25
169,42.36105774639864,-71.13886857751926,200,2.24,600.0,11.0,7.0,2.24,600.0,10.0,7.0,,,1.25
170,42.36228115908728,-71.14031539967691,200,2.22,600.0,11.0,7.0,2.22,600.0,10.0,7.0,,,1.25
171,42.3635954588595,-71.14160795275738,200,2.15,420.0,10.0,6.0,2.15,420.0,9.0,7.0,,,1.25
172,42.36499006374634,-71.14273582988321,200,1.89,420.0,9.0,6.0,1.89,420.0,9.0,6.0,,,1.25
173,42.36645374520928,-71.14368995005103,200,1.66,420.0,9.0,6.0,1.66,420.0,8.0,6.0,,,1.25
174,42.36797471854579,-71.14446263124623,200,2.48,480.0,10.0,7.0,2.48,480.0,10.0,7.0,,,1.25
175,42.3695407377729,-71.14504765229414,200,1.73,480.0,9.0,6.0,1.73,480.0,9.0,6.0,,,1.25
176,42.371139194224575,-71.14544030294931,200,1.6,480.0,9.0,6.0,1.6,480.0,9.0,6.0,,,1.25
177,42.37275721806936,-71.14563742181952,200,1.53,420.0,9.0,6.0,1.53,420.0,8.0,6.0,,,1.25
178,42.374381781930644,-71.14563742181952,200,1.4,360.0,9.0,6.0,1.4,360.0,9.0,7.0,,,1.25
179,42.37599980577543,-71.14544030294931,200,1.45,360.0,9.0,6.0,1.45,360.0,9.0,7.0,,,1.25
180,42.37759826222711,-71.14504765229414,200,1.43,360.0,9.0,6.0,1.43,360.0,9.0,7.0,,,1.25
181,42.37916428145422,-71.14446263124623,200,1.42,360.0,9.0,6.0,1.42,360.0,9.0,7.0,,,1.25
182,42.38068525479073,-71.14368995005103,200,1.53,360.0,10.0,6.0,1.53,360.0,10.0,7.0,,,1.25
183,42.382148936253664,-71.14273582988321,200,1.52,360.0,10.0,6.0,1.52,360.0,10.0,7.0,,,1.25
184,42.3835435411405,-71.14160795275738,200,1.58,360.0,10.0,6.0,1.58,360.0,10.0,7.0,,,1.25
185,42.38485784091273,-71.14031539967691,200,1.61,360.0,10.0,6.0,1.61,360.0,10.0,7.0,,,1.25
186,42.38608125360136,-71.13886857751926,200,1.51,360.0,10.0,6.0,1.51,360.0,10.0,7.0,,,1.25
187,42.387203929006795,-71.13727913524569,200,1.65,420.0,10.0,6.0,1.65,420.0,10.0,7.0,,,1.25
188,42.38821682800676,-71.13555987011081,200,1.39,420.0,10.0,6.0,1.39,420.0,10.0,7.0,,,1.25
189,42.38911179533412,-71.1337246246266,200,1.37,420.0,10.0,6.0,1.37,420.0,10.0,7.0,,,1.25
190,42.38988162523817,-71.13178817511056,200,1.48,360.0,10.0,6.0,1.48,360.0,10.0,7.0,,,1.25
191,42.39052011950117,-71.1297661127156,200,1.64,420.0,10.0,6.0,1.64,420.0,10.0,7.0,,,1.25
192,42.39102213734275,-71.12767471789917,200,1.79,480.0,10.0,7.0,1.79,480.0,11.0,8.0,,,1.25
193,42.39138363681044,-71.1255308293426,200,1.89,480.0,10.0,7.0,1.89,480.0,11.0,8.0,,,1.25
194,42.39160170732306,-71.12335170837595,200,1.58,420.0,10.0,6.0,1.58,420.0,10.0,7.0,,,1.25
195,42.391674593105094,-71.12115490000002,200,1.5,480.0,10.0,6.0,1.5,480.0,10.0,7.0,,,1.5
196,42.39523486111126,-71.11895718967577,200,2.02,600.0,9.0,6.0,2.02,600.0,12.0,9.0,,,1.5
197,42.395052949008786,-71.11677176983915,200,2.1,600.0,10.0,6.0,2.1,600.0,12.0,9.0,,,1.5
198,42.39475089274497,-71.11461086224436,200,1.85,660.0,9.0,6.0,1.85,660.0,11.0,8.0,,,1.5
199,42.39433038154096,-71.11248655156321,200,2.02,660.0,10.0,6.0,2.02,660.0,12.0,9.0,,,1.5
200,42.39379376706595,-71.11041071780272,200,2.14,660.0,10.0,6.0,2.14,660.0,12.0,9.0,,,1.5
201,42.3931440502858,-71.10839496986732,200,2.26,720.0,10.0,6.0,2.26,720.0,12.0,9.0,,,1.5
202,42.392384864680274,-71.10645058063712,200,2.15,600.0,10.0,6.0,2.15,600.0,12.0,9.0,,,1.5
203,42.39152045592324,-71.10458842392546,200,1.96,660.0,9.0,6.0,1.96,660.0,12.0,9.0,,,1.5
204,42.39055565813909,-71.10281891366796,200,1.85,600.0,9.0,6.0,1.85,600.0,11.0,8.0,,,1.5
205,42.389495866868415,-71.1011519456838,200,1.85,600.0,9.0,6.0,1.85,600.0,11.0,8.0,,,1.5
206,42.38834700889387,-71.09959684233414,200,1.91,600.0,9.0,6.0,1.91,600.0,11.0,8.0,,,1.5
207,42.38711550909528,-71.09816230038768,200,2.12,720.0,10.0,6.0,2.12,720.0,12.0,9.0,,,1.5
208,42.385808254519056,-71.09685634238495,200,1.5,180.0,10.0,6.0,1.5,180.0,12.0,9.0,,,1.5
209,42.38443255586306,-71.09568627177279,200,1.92,660.0,9.0,6.0,1.92,660.0,11.0,8.0,,,1.5
210,42.382996106592216,-71.09465863206074,200,1.87,600.0,9.0,6.0,1.87,600.0,11.0,8.0,,,1.5
211,42.38150693991353,-71.09377917022684,200,1.73,540.0,9.0,5.0,1.73,540.0,11.0,8.0,,,1.5
212,42.3799733838511,-71.0930528045785,200,1.83,600.0,9.0,6.0,1.83,600.0,11.0,8.0,,,1.5
213,42.37840401467253,-71.09248359724702,200,1.74,600.0,9.0,6.0,1.74,600.0,11.0,8.0,,,1.5
214,42.37680760892686,-71.09207473147067,200,1.9,660.0,9.0,6.0,1.9,660.0,11.0,8.0,,,1.5
215,42.37519309436257,-71.09182849379278,200,1.81,600.0,8.0,5.0,1.81,600.0,11.0,8.0,,,1.5
216,42.3735695,-71.09174626127427,200,1.74,600.0,8.0,5.0,1.74,600.0,11.0,8.0,,,1.5
217,42.37194590563744,-71.09182849379278,200,1.71,540.0,8.0,5.0,1.71,540.0,10.0,8.0,,,1.5
218,42.37033139107313,-71.09207473147067,200,1.99,600.0,9.0,5.0,1.99,600.0,11.0,8.0,,,1.5
219,42.36873498532747,-71.09248359724702,200,2.11,600.0,9.0,5.0,2.11,600.0,11.0,8.0,,,1.5
220,42.367165616148895,-71.0930528045785,200,1.8,540.0,8.0,5.0,1.8,540.0,11.0,8.0,,,1.5
